version 1
nodes
0 "blender_implicit1" -1
1 "j_gun1" -1
2 "j_bolt1" 1
3 "tag_iron_sights1" 2
4 "tag_upgraded_sights1" 2
5 "j_press_rear1" 1
6 "tag_brass1" 1
7 "tag_clip1" 1
8 "tag_ext_clip1" 1
9 "tag_flash1" 1
10 "tag_flash3" 1
11 "tag_fullauto_clip1" 1
12 "tag_long_barrel1" 1
13 "tag_short_barrel1" 1
14 "tag_suppressor1" 1
end
skeleton
time 0
0  0.000000 0.000000 0.000000  0.000000 -0.000000 0.000000
1  0.000000 0.000000 0.000000  0.000000 -0.000000 0.000000
2  -3.450585 0.208189 3.660320  0.000000 -0.000000 0.000000
3  -0.179014 -0.208023 -0.543189  0.000000 -0.000000 0.000000
4  -0.179014 -0.208023 -0.543189  0.000000 -0.000000 0.000000
5  -6.891482 0.159309 0.943006  0.000000 -0.000000 0.000000
6  -2.087761 0.000000 3.333204  -1.570806 -0.785361 -1.570783
7  -4.118801 0.220155 -3.805169  0.000000 -0.000000 0.000000
8  -5.519761 0.000000 -8.469023  0.000000 -0.000000 0.000000
9  12.530948 0.236408 2.409599  0.000000 -0.000000 0.000000
10  15.937667 0.236408 2.409599  0.000000 -0.000000 0.000000
11  8.151492 0.220155 -3.805169  0.000000 -0.000000 0.000000
12  14.119657 0.000000 2.459363  0.000000 -0.000000 0.000000
13  9.076451 0.000000 2.459363  0.000000 -0.000000 0.000000
14  12.264819 0.000000 2.459363  0.000000 -0.000000 0.000000
end
triangles
cz75_frame
0  -5.345079 0.186893 3.477981  -1.000000 0.000000 0.000000  0.061127 0.732910 1 4 1.000000
0  -5.345079 -0.187155 3.477981  -1.000000 0.000000 0.000000  0.061218 0.694092 1 4 1.000000
0  -5.345079 0.678655 3.508832  -0.534849 0.526782 0.660634  0.065796 0.821289 1 4 1.000000
cz75_frame
0  -5.345079 0.685622 3.477981  -0.233198 0.952180 0.197413  0.060913 0.822388 1 4 1.000000
0  -5.345079 0.186893 3.477981  -1.000000 0.000000 0.000000  0.061127 0.732910 1 4 1.000000
0  -5.345079 0.678655 3.508832  -0.534849 0.526782 0.660634  0.065796 0.821289 1 4 1.000000
cz75_frame
0  -5.345079 -0.187155 3.477981  -1.000000 0.000000 0.000000  0.061218 0.694092 1 4 1.000000
0  -5.345079 -0.678917 3.508832  -0.534867 -0.526883 0.660539  0.066284 0.605713 1 4 1.000000
0  -5.345079 0.678655 3.508832  -0.534849 0.526782 0.660634  0.065796 0.821289 1 4 1.000000
cz75_frame
0  -5.345079 -0.187155 3.477981  -1.000000 0.000000 0.000000  0.061218 0.694092 1 4 1.000000
0  -5.345079 -0.685884 3.477981  -0.249397 -0.944832 0.212354  0.061432 0.604492 1 4 1.000000
0  -5.345079 -0.678917 3.508832  -0.534867 -0.526883 0.660539  0.066284 0.605713 1 4 1.000000
cz75_frame
0  -4.280461 0.719465 3.237695  0.693302 0.701396 0.165455  0.100281 0.807251 1 4 1.000000
0  -4.280461 -0.719727 3.237695  0.693338 -0.701364 0.165445  0.035858 0.807373 1 4 1.000000
0  -4.242066 -0.645462 3.115455  0.745780 -0.620235 -0.243147  0.035126 0.802734 1 4 1.000000
cz75_frame
0  -4.242066 0.650380 3.121177  0.745235 0.620700 -0.243631  0.101013 0.802612 1 4 1.000000
0  -4.280461 0.719465 3.237695  0.693302 0.701396 0.165455  0.100281 0.807251 1 4 1.000000
0  -4.242066 -0.645462 3.115455  0.745780 -0.620235 -0.243147  0.035126 0.802734 1 4 1.000000
cz75_frame
0  -6.185111 0.700603 3.364311  -0.562620 0.547398 0.619528  0.069092 0.825439 1 4 1.000000
0  -6.185111 -0.700865 3.364311  -0.563937 -0.547535 0.618207  0.070129 0.604736 1 4 1.000000
0  -6.010333 -0.700662 3.364580  -0.525609 -0.762707 0.376846  0.096863 0.604980 1 4 1.000000
cz75_frame
0  -6.010333 0.700400 3.364580  -0.525115 0.769440 0.363616  0.096313 0.825317 1 4 1.000000
0  -6.185111 0.700603 3.364311  -0.562620 0.547398 0.619528  0.069092 0.825439 1 4 1.000000
0  -6.010333 -0.700662 3.364580  -0.525609 -0.762707 0.376846  0.096863 0.604980 1 4 1.000000
cz75_frame
0  -5.345079 -0.187155 3.477981  0.902009 0.196835 0.384234  0.080200 0.645264 1 4 1.000000
0  -5.888949 -0.187155 3.477981  0.314849 0.949142 -0.000000  0.080200 0.690430 1 4 1.000000
0  -5.453377 -0.187155 3.741806  0.482266 0.512697 0.710325  0.059143 0.654297 1 4 1.000000
cz75_frame
0  -5.888949 -0.187155 3.477981  0.314849 0.949142 -0.000000  0.080200 0.690430 1 4 1.000000
0  -5.888949 -0.187155 3.741806  0.212943 0.654755 0.725225  0.059143 0.690430 1 4 1.000000
0  -5.453377 -0.187155 3.741806  0.482266 0.512697 0.710325  0.059143 0.654297 1 4 1.000000
cz75_frame
0  -5.888949 -0.187155 3.741806  0.212943 0.654755 0.725225  0.059143 0.690430 1 4 1.000000
0  -5.888949 -0.187155 3.477981  0.314849 0.949142 -0.000000  0.080200 0.690430 1 4 1.000000
0  -5.945627 -0.144902 3.741806  0.275495 0.842113 0.463625  0.059143 0.695312 1 4 1.000000
cz75_frame
0  -5.888949 -0.187155 3.477981  0.314849 0.949142 -0.000000  0.080200 0.690430 1 4 1.000000
0  -5.945627 -0.144902 3.477981  0.314860 0.949138 0.000000  0.080200 0.695312 1 4 1.000000
0  -5.945627 -0.144902 3.741806  0.275495 0.842113 0.463625  0.059143 0.695312 1 4 1.000000
cz75_frame
0  -6.001776 -0.144902 3.741806  -0.566757 0.582574 0.582575  0.059143 0.699951 1 4 1.000000
0  -5.945627 -0.144902 3.741806  0.275495 0.842113 0.463625  0.059143 0.695312 1 4 1.000000
0  -5.945627 -0.144902 3.477981  0.314860 0.949138 0.000000  0.080200 0.695312 1 4 1.000000
cz75_frame
0  -6.010913 -0.144902 3.477981  -0.972182 0.165344 0.165903  0.080200 0.699951 1 4 1.000000
0  -6.001776 -0.144902 3.741806  -0.566757 0.582574 0.582575  0.059143 0.699951 1 4 1.000000
0  -5.945627 -0.144902 3.477981  0.314860 0.949138 0.000000  0.080200 0.695312 1 4 1.000000
cz75_frame
0  -6.185111 0.712589 3.237695  -0.748479 0.630688 -0.204967  0.098877 0.748535 1 4 1.000000
0  -6.185111 0.614230 3.134502  -0.462161 0.668644 -0.582513  0.096497 0.753174 1 4 1.000000
0  -6.185111 -0.614492 3.134502  -0.462729 -0.668482 -0.582250  0.037354 0.753296 1 4 1.000000
cz75_frame
0  -6.185111 -0.712851 3.237695  -0.748699 -0.630450 -0.204897  0.035034 0.748779 1 4 1.000000
0  -6.185111 0.712589 3.237695  -0.748479 0.630688 -0.204967  0.098877 0.748535 1 4 1.000000
0  -6.185111 -0.614492 3.134502  -0.462729 -0.668482 -0.582250  0.037354 0.753296 1 4 1.000000
cz75_frame
0  -6.185111 0.712589 3.237695  -0.748479 0.630688 -0.204967  0.098877 0.748535 1 4 1.000000
0  -6.185111 -0.712851 3.237695  -0.748699 -0.630450 -0.204897  0.035034 0.748779 1 4 1.000000
0  -6.185111 -0.700865 3.364311  -0.563937 -0.547535 0.618207  0.035706 0.743164 1 4 1.000000
cz75_frame
0  -6.185111 0.700603 3.364311  -0.562620 0.547398 0.619528  0.098145 0.743164 1 4 1.000000
0  -6.185111 0.712589 3.237695  -0.748479 0.630688 -0.204967  0.098877 0.748535 1 4 1.000000
0  -6.185111 -0.700865 3.364311  -0.563937 -0.547535 0.618207  0.035706 0.743164 1 4 1.000000
cz75_frame
0  -5.453380 -0.457576 3.742903  -0.000153 -0.190741 0.981640  0.050354 0.655273 1 4 1.000000
0  -5.453377 -0.187155 3.741806  0.482266 0.512697 0.710325  0.077881 0.655273 1 4 1.000000
0  -5.888949 -0.187155 3.741806  0.212943 0.654755 0.725225  0.077881 0.691650 1 4 1.000000
cz75_frame
0  -6.010293 -0.456781 3.741806  -0.556160 -0.094676 0.825665  0.050354 0.700928 1 4 1.000000
0  -5.453380 -0.457576 3.742903  -0.000153 -0.190741 0.981640  0.050354 0.655273 1 4 1.000000
0  -5.888949 -0.187155 3.741806  0.212943 0.654755 0.725225  0.077881 0.691650 1 4 1.000000
cz75_frame
0  -5.945627 -0.144902 3.741806  0.275495 0.842113 0.463625  0.080200 0.696289 1 4 1.000000
0  -6.010293 -0.456781 3.741806  -0.556160 -0.094676 0.825665  0.050354 0.700928 1 4 1.000000
0  -5.888949 -0.187155 3.741806  0.212943 0.654755 0.725225  0.077881 0.691650 1 4 1.000000
cz75_frame
0  -6.010293 -0.456781 3.741806  -0.556160 -0.094676 0.825665  0.050354 0.700928 1 4 1.000000
0  -6.010293 -0.526260 3.715868  -0.453541 -0.447794 0.770572  0.044373 0.700928 1 4 1.000000
0  -5.453380 -0.457576 3.742903  -0.000153 -0.190741 0.981640  0.050354 0.655273 1 4 1.000000
cz75_frame
0  -5.945627 -0.144902 3.741806  0.275495 0.842113 0.463625  0.080200 0.696289 1 4 1.000000
0  -6.001776 -0.144902 3.741806  -0.566757 0.582574 0.582575  0.080200 0.700928 1 4 1.000000
0  -6.010293 -0.456781 3.741806  -0.556160 -0.094676 0.825665  0.050354 0.700928 1 4 1.000000
cz75_frame
0  -6.010293 -0.526260 3.715868  -0.453541 -0.447794 0.770572  0.044373 0.700928 1 4 1.000000
0  -5.447749 -0.529153 3.714346  0.000058 -0.489986 0.871730  0.044373 0.654785 1 4 1.000000
0  -5.453380 -0.457576 3.742903  -0.000153 -0.190741 0.981640  0.050354 0.655273 1 4 1.000000
cz75_frame
0  -6.010293 -0.526260 3.715868  -0.453541 -0.447794 0.770572  0.075012 0.738770 1 4 1.000000
0  -6.010293 -0.589049 3.662990  -0.713458 -0.525880 0.463063  0.077576 0.739014 1 4 1.000000
0  -5.447749 -0.529153 3.714346  -0.000696 -0.516573 0.856243  0.074829 0.766113 1 4 1.000000
cz75_frame
0  -6.010293 -0.589049 3.662990  -0.713458 -0.525880 0.463063  0.077576 0.739014 1 4 1.000000
0  -5.441437 -0.594665 3.663333  0.039416 -0.735222 0.676679  0.077332 0.766479 1 4 1.000000
0  -5.447749 -0.529153 3.714346  -0.000696 -0.516573 0.856243  0.074829 0.766113 1 4 1.000000
cz75_frame
0  -6.010293 -0.589049 3.662990  -0.713458 -0.525880 0.463063  0.077576 0.739014 1 4 1.000000
0  -6.010293 -0.646483 3.568586  -0.716652 -0.629965 0.299256  0.082031 0.739014 1 4 1.000000
0  -5.441437 -0.594665 3.663333  0.039416 -0.735222 0.676679  0.077332 0.766479 1 4 1.000000
cz75_frame
0  -6.010293 -0.646483 3.568586  -0.716652 -0.629965 0.299256  0.082031 0.739014 1 4 1.000000
0  -5.415414 -0.654195 3.571816  -0.013157 -0.915311 0.402534  0.081848 0.767822 1 4 1.000000
0  -5.441437 -0.594665 3.663333  0.039416 -0.735222 0.676679  0.077332 0.766479 1 4 1.000000
cz75_frame
0  -6.010293 -0.646483 3.568586  -0.716652 -0.629965 0.299256  0.082031 0.739014 1 4 1.000000
0  -6.010293 -0.677258 3.477669  -0.711638 -0.678700 0.181486  0.087036 0.739014 1 4 1.000000
0  -5.415414 -0.654195 3.571816  -0.013157 -0.915311 0.402534  0.081848 0.767822 1 4 1.000000
cz75_frame
0  -6.010293 -0.677258 3.477669  -0.711638 -0.678700 0.181486  0.087036 0.739014 1 4 1.000000
0  -5.345079 -0.685884 3.477981  -0.249397 -0.944832 0.212354  0.086426 0.771240 1 4 1.000000
0  -5.415414 -0.654195 3.571816  -0.013157 -0.915311 0.402534  0.081848 0.767822 1 4 1.000000
cz75_frame
0  -6.010333 -0.700662 3.364580  -0.525609 -0.762707 0.376846  0.092407 0.738770 1 4 1.000000
0  -5.345079 -0.685884 3.477981  -0.249397 -0.944832 0.212354  0.086426 0.771240 1 4 1.000000
0  -6.010293 -0.677258 3.477669  -0.711638 -0.678700 0.181486  0.087036 0.739014 1 4 1.000000
cz75_frame
0  -5.345079 -0.685884 3.477981  -0.249397 -0.944832 0.212354  0.086426 0.771240 1 4 1.000000
0  -6.010333 -0.700662 3.364580  -0.525609 -0.762707 0.376846  0.092407 0.738770 1 4 1.000000
0  -6.010293 -0.719727 3.237695  -0.022673 -0.953048 -0.301971  0.098511 0.738525 1 4 1.000000
cz75_frame
0  -6.185111 -0.712851 3.237695  -0.748699 -0.630450 -0.204897  0.098572 0.729980 1 4 1.000000
0  -6.010293 -0.719727 3.237695  -0.022673 -0.953048 -0.301971  0.098511 0.738525 1 4 1.000000
0  -6.010333 -0.700662 3.364580  -0.525609 -0.762707 0.376846  0.092407 0.738770 1 4 1.000000
cz75_frame
0  -5.345079 -0.685884 3.477981  -0.249397 -0.944832 0.212354  0.086426 0.771240 1 4 1.000000
0  -6.010293 -0.719727 3.237695  -0.022673 -0.953048 -0.301971  0.098511 0.738525 1 4 1.000000
0  -4.280461 -0.719727 3.237695  0.693338 -0.701364 0.165445  0.097900 0.823853 1 4 1.000000
cz75_frame
0  -6.185111 -0.700865 3.364311  -0.563937 -0.547535 0.618207  0.092590 0.730225 1 4 1.000000
0  -6.185111 -0.712851 3.237695  -0.748699 -0.630450 -0.204897  0.098572 0.729980 1 4 1.000000
0  -6.010333 -0.700662 3.364580  -0.525609 -0.762707 0.376846  0.092407 0.738770 1 4 1.000000
cz75_frame
0  -6.185111 -0.712851 3.237695  -0.748699 -0.630450 -0.204897  0.098572 0.729980 1 4 1.000000
0  -6.185111 -0.614492 3.134502  -0.462729 -0.668482 -0.582250  0.103638 0.734375 1 4 1.000000
0  -6.010293 -0.719727 3.237695  -0.022673 -0.953048 -0.301971  0.098511 0.738525 1 4 1.000000
cz75_frame
0  -4.280461 -0.719727 3.237695  0.693338 -0.701364 0.165445  0.097900 0.823853 1 4 1.000000
0  -6.010293 -0.719727 3.237695  -0.022673 -0.953048 -0.301971  0.098511 0.738525 1 4 1.000000
0  -4.242066 -0.645462 3.115455  0.745780 -0.620235 -0.243147  0.102966 0.825806 1 4 1.000000
cz75_frame
0  -6.010293 -0.719727 3.237695  -0.022673 -0.953048 -0.301971  0.098511 0.738525 1 4 1.000000
0  -6.185111 -0.614492 3.134502  -0.462729 -0.668482 -0.582250  0.103638 0.734375 1 4 1.000000
0  -4.242066 -0.645462 3.115455  0.745780 -0.620235 -0.243147  0.102966 0.825806 1 4 1.000000
cz75_frame
0  -5.345079 -0.685884 3.477981  -0.249397 -0.944832 0.212354  0.086426 0.771240 1 4 1.000000
0  -4.280461 -0.719727 3.237695  0.693338 -0.701364 0.165445  0.097900 0.823853 1 4 1.000000
0  -4.480441 -0.678917 3.508832  0.276258 -0.679883 0.679294  0.085388 0.813232 1 4 1.000000
cz75_frame
0  -5.345079 -0.678917 3.508832  -0.534867 -0.526883 0.660539  0.084900 0.771240 1 4 1.000000
0  -5.345079 -0.685884 3.477981  -0.249397 -0.944832 0.212354  0.086426 0.771240 1 4 1.000000
0  -4.480441 -0.678917 3.508832  0.276258 -0.679883 0.679294  0.085388 0.813232 1 4 1.000000
cz75_frame
0  -5.345079 0.678655 3.508832  -0.534849 0.526782 0.660634  0.097717 0.801758 1 4 1.000000
0  -5.345079 -0.678917 3.508832  -0.534867 -0.526883 0.660539  0.036926 0.801880 1 4 1.000000
0  -4.480441 -0.678917 3.508832  0.276258 -0.679883 0.679294  0.036713 0.763794 1 4 1.000000
cz75_frame
0  -4.480441 0.678655 3.508832  0.276255 0.679877 0.679302  0.097839 0.763672 1 4 1.000000
0  -5.345079 0.678655 3.508832  -0.534849 0.526782 0.660634  0.097717 0.801758 1 4 1.000000
0  -4.480441 -0.678917 3.508832  0.276258 -0.679883 0.679294  0.036713 0.763794 1 4 1.000000
cz75_frame
0  -4.480441 0.678655 3.508832  0.276255 0.679877 0.679302  0.097839 0.763672 1 4 1.000000
0  -4.480441 -0.678917 3.508832  0.276258 -0.679883 0.679294  0.036713 0.763794 1 4 1.000000
0  -4.280461 -0.719727 3.237695  0.693338 -0.701364 0.165445  0.035034 0.754150 1 4 1.000000
cz75_frame
0  -4.280461 0.719465 3.237695  0.693302 0.701396 0.165455  0.099487 0.754028 1 4 1.000000
0  -4.480441 0.678655 3.508832  0.276255 0.679877 0.679302  0.097839 0.763672 1 4 1.000000
0  -4.280461 -0.719727 3.237695  0.693338 -0.701364 0.165445  0.035034 0.754150 1 4 1.000000
cz75_frame
0  -5.345079 -0.685884 3.477981  0.800168 0.000000 0.599776  0.072815 0.652344 1 4 1.000000
0  -5.345079 -0.187155 3.477981  0.905174 0.179224 0.385408  0.072815 0.699463 1 4 1.000000
0  -5.415414 -0.654195 3.571816  0.906261 -0.051813 0.419532  0.065002 0.655029 1 4 1.000000
cz75_frame
0  -5.345079 -0.187155 3.477981  0.905174 0.179224 0.385408  0.072815 0.699463 1 4 1.000000
0  -5.441437 -0.594665 3.663333  0.951124 -0.090625 0.295213  0.057373 0.660156 1 4 1.000000
0  -5.415414 -0.654195 3.571816  0.906261 -0.051813 0.419532  0.065002 0.655029 1 4 1.000000
cz75_frame
0  -5.447749 -0.529153 3.714346  0.939374 -0.041390 0.340387  0.053131 0.665527 1 4 1.000000
0  -5.441437 -0.594665 3.663333  0.951124 -0.090625 0.295213  0.057373 0.660156 1 4 1.000000
0  -5.345079 -0.187155 3.477981  0.905174 0.179224 0.385408  0.072815 0.699463 1 4 1.000000
cz75_frame
0  -5.453380 -0.457576 3.742903  0.919634 0.019796 0.392278  0.050751 0.671387 1 4 1.000000
0  -5.447749 -0.529153 3.714346  0.939374 -0.041390 0.340387  0.053131 0.665527 1 4 1.000000
0  -5.345079 -0.187155 3.477981  0.905174 0.179224 0.385408  0.072815 0.699463 1 4 1.000000
cz75_frame
0  -5.453380 -0.457576 3.742903  0.919634 0.019796 0.392278  0.050751 0.671387 1 4 1.000000
0  -5.345079 -0.187155 3.477981  0.905174 0.179224 0.385408  0.072815 0.699463 1 4 1.000000
0  -5.453377 -0.187155 3.741806  0.479193 0.514553 0.711062  0.051239 0.698975 1 4 1.000000
cz75_frame
0  -5.888949 0.186893 3.477981  0.314848 -0.949142 0.000000  0.036621 0.690430 1 4 1.000000
0  -5.345079 0.186893 3.477981  0.901966 -0.196836 0.384334  0.036621 0.645264 1 4 1.000000
0  -5.453377 0.186893 3.741806  0.482337 -0.512685 0.710285  0.057709 0.654297 1 4 1.000000
cz75_frame
0  -5.888949 0.186893 3.741806  0.213039 -0.654727 0.725222  0.057709 0.690430 1 4 1.000000
0  -5.888949 0.186893 3.477981  0.314848 -0.949142 0.000000  0.036621 0.690430 1 4 1.000000
0  -5.453377 0.186893 3.741806  0.482337 -0.512685 0.710285  0.057709 0.654297 1 4 1.000000
cz75_frame
0  -5.888949 0.186893 3.741806  0.213039 -0.654727 0.725222  0.057709 0.690430 1 4 1.000000
0  -5.945627 0.144640 3.741806  0.275466 -0.842123 0.463625  0.057709 0.695312 1 4 1.000000
0  -5.888949 0.186893 3.477981  0.314848 -0.949142 0.000000  0.036621 0.690430 1 4 1.000000
cz75_frame
0  -5.945627 0.144640 3.741806  0.275466 -0.842123 0.463625  0.057709 0.695312 1 4 1.000000
0  -5.945627 0.144640 3.477981  0.314859 -0.949138 0.000000  0.036621 0.695312 1 4 1.000000
0  -5.888949 0.186893 3.477981  0.314848 -0.949142 0.000000  0.036621 0.690430 1 4 1.000000
cz75_frame
0  -5.945627 0.144640 3.741806  0.275466 -0.842123 0.463625  0.057709 0.695312 1 4 1.000000
0  -6.001776 0.144640 3.741806  -0.566810 -0.582577 0.582521  0.057709 0.699951 1 4 1.000000
0  -5.945627 0.144640 3.477981  0.314859 -0.949138 0.000000  0.036621 0.695312 1 4 1.000000
cz75_frame
0  -6.001776 0.144640 3.741806  -0.566810 -0.582577 0.582521  0.057709 0.699951 1 4 1.000000
0  -6.010913 0.144640 3.477981  -0.972163 -0.165344 0.166013  0.036621 0.699951 1 4 1.000000
0  -5.945627 0.144640 3.477981  0.314859 -0.949138 0.000000  0.036621 0.695312 1 4 1.000000
cz75_frame
0  -6.001776 -0.144902 3.741806  -0.566757 0.582574 0.582575  0.032928 0.737549 1 4 1.000000
0  -6.010913 -0.144902 3.477981  -0.968458 0.176116 0.176275  0.061218 0.737061 1 4 1.000000
0  -6.010293 -0.456781 3.741806  -0.556160 -0.094676 0.825665  0.033203 0.789429 1 4 1.000000
cz75_frame
0  -6.010913 -0.144902 3.477981  -0.968458 0.176116 0.176275  0.061218 0.737061 1 4 1.000000
0  -6.010293 -0.526260 3.715868  -0.453541 -0.447794 0.770572  0.037476 0.799683 1 4 1.000000
0  -6.010293 -0.456781 3.741806  -0.556160 -0.094676 0.825665  0.033203 0.789429 1 4 1.000000
cz75_frame
0  -6.010913 -0.144902 3.477981  -0.968458 0.176116 0.176275  0.061218 0.737061 1 4 1.000000
0  -6.010293 -0.589049 3.662990  -0.713458 -0.525880 0.463063  0.045258 0.808960 1 4 1.000000
0  -6.010293 -0.526260 3.715868  -0.453541 -0.447794 0.770572  0.037476 0.799683 1 4 1.000000
cz75_frame
0  -6.010913 -0.144902 3.477981  -0.968458 0.176116 0.176275  0.061218 0.737061 1 4 1.000000
0  -6.010293 -0.646483 3.568586  -0.716652 -0.629965 0.299256  0.059326 0.817505 1 4 1.000000
0  -6.010293 -0.589049 3.662990  -0.713458 -0.525880 0.463063  0.045258 0.808960 1 4 1.000000
cz75_frame
0  -6.010293 -0.677258 3.477669  -0.711638 -0.678700 0.181486  0.074890 0.822021 1 4 1.000000
0  -6.010293 -0.646483 3.568586  -0.716652 -0.629965 0.299256  0.059326 0.817505 1 4 1.000000
0  -6.010913 -0.144902 3.477981  -0.968458 0.176116 0.176275  0.061218 0.737061 1 4 1.000000
cz75_frame
0  -6.010293 -0.677258 3.477669  -0.711638 -0.678700 0.181486  0.074890 0.822021 1 4 1.000000
0  -6.010913 -0.144902 3.477981  -0.968458 0.176116 0.176275  0.061218 0.737061 1 4 1.000000
0  -6.010333 -0.700662 3.364580  -0.525609 -0.762707 0.376846  0.091797 0.824097 1 4 1.000000
cz75_frame
0  -6.010913 -0.144902 3.477981  -0.968458 0.176116 0.176275  0.061218 0.737061 1 4 1.000000
0  -6.010913 0.144640 3.477981  -0.968459 -0.176176 0.176210  0.061096 0.708008 1 4 1.000000
0  -6.010333 -0.700662 3.364580  -0.525609 -0.762707 0.376846  0.091797 0.824097 1 4 1.000000
cz75_frame
0  -6.010913 0.144640 3.477981  -0.968459 -0.176176 0.176210  0.061096 0.708008 1 4 1.000000
0  -6.010333 0.700400 3.364580  -0.525115 0.769440 0.363616  0.090820 0.620850 1 4 1.000000
0  -6.010333 -0.700662 3.364580  -0.525609 -0.762707 0.376846  0.091797 0.824097 1 4 1.000000
cz75_frame
0  -6.010374 0.685622 3.477808  -0.709181 0.685346 0.165416  0.073914 0.622803 1 4 1.000000
0  -6.010333 0.700400 3.364580  -0.525115 0.769440 0.363616  0.090820 0.620850 1 4 1.000000
0  -6.010913 0.144640 3.477981  -0.968459 -0.176176 0.176210  0.061096 0.708008 1 4 1.000000
cz75_frame
0  -6.010913 0.144640 3.477981  -0.968459 -0.176176 0.176210  0.061096 0.708008 1 4 1.000000
0  -6.009833 0.653933 3.568461  -0.707297 0.636945 0.306647  0.058380 0.627441 1 4 1.000000
0  -6.010374 0.685622 3.477808  -0.709181 0.685346 0.165416  0.073914 0.622803 1 4 1.000000
cz75_frame
0  -6.010503 0.594403 3.663333  -0.713772 0.518258 0.471104  0.044434 0.636230 1 4 1.000000
0  -6.009833 0.653933 3.568461  -0.707297 0.636945 0.306647  0.058380 0.627441 1 4 1.000000
0  -6.010913 0.144640 3.477981  -0.968459 -0.176176 0.176210  0.061096 0.708008 1 4 1.000000
cz75_frame
0  -6.010293 0.525998 3.715868  -0.446747 0.440282 0.778825  0.036743 0.645508 1 4 1.000000
0  -6.010503 0.594403 3.663333  -0.713772 0.518258 0.471104  0.044434 0.636230 1 4 1.000000
0  -6.010913 0.144640 3.477981  -0.968459 -0.176176 0.176210  0.061096 0.708008 1 4 1.000000
cz75_frame
0  -6.010293 0.456519 3.741806  -0.556150 0.094711 0.825667  0.032532 0.655762 1 4 1.000000
0  -6.010293 0.525998 3.715868  -0.446747 0.440282 0.778825  0.036743 0.645508 1 4 1.000000
0  -6.010913 0.144640 3.477981  -0.968459 -0.176176 0.176210  0.061096 0.708008 1 4 1.000000
cz75_frame
0  -6.010293 0.456519 3.741806  -0.556150 0.094711 0.825667  0.032532 0.655762 1 4 1.000000
0  -6.010913 0.144640 3.477981  -0.968459 -0.176176 0.176210  0.061096 0.708008 1 4 1.000000
0  -6.001776 0.144640 3.741806  -0.566810 -0.582577 0.582521  0.033264 0.707764 1 4 1.000000
cz75_frame
0  -5.453377 0.457314 3.742903  -0.000153 0.190737 0.981641  0.074585 0.654053 1 4 1.000000
0  -5.447749 0.528892 3.714346  0.000045 0.479753 0.877404  0.080505 0.653564 1 4 1.000000
0  -6.010293 0.525998 3.715868  -0.446747 0.440282 0.778825  0.080505 0.699707 1 4 1.000000
cz75_frame
0  -6.010293 0.456519 3.741806  -0.556150 0.094711 0.825667  0.074585 0.699707 1 4 1.000000
0  -5.453377 0.457314 3.742903  -0.000153 0.190737 0.981641  0.074585 0.654053 1 4 1.000000
0  -6.010293 0.525998 3.715868  -0.446747 0.440282 0.778825  0.080505 0.699707 1 4 1.000000
cz75_frame
0  -5.453377 0.457314 3.742903  -0.000153 0.190737 0.981641  0.074585 0.654053 1 4 1.000000
0  -6.010293 0.456519 3.741806  -0.556150 0.094711 0.825667  0.074585 0.699707 1 4 1.000000
0  -5.888949 0.186893 3.741806  0.213039 -0.654727 0.725222  0.047028 0.690430 1 4 1.000000
cz75_frame
0  -5.888949 0.186893 3.741806  0.213039 -0.654727 0.725222  0.047028 0.690430 1 4 1.000000
0  -6.010293 0.456519 3.741806  -0.556150 0.094711 0.825667  0.074585 0.699707 1 4 1.000000
0  -5.945627 0.144640 3.741806  0.275466 -0.842123 0.463625  0.044708 0.695068 1 4 1.000000
cz75_frame
0  -5.453377 0.186893 3.741806  0.482337 -0.512685 0.710285  0.047028 0.654053 1 4 1.000000
0  -5.453377 0.457314 3.742903  -0.000153 0.190737 0.981641  0.074585 0.654053 1 4 1.000000
0  -5.888949 0.186893 3.741806  0.213039 -0.654727 0.725222  0.047028 0.690430 1 4 1.000000
cz75_frame
0  -6.010293 0.456519 3.741806  -0.556150 0.094711 0.825667  0.074585 0.699707 1 4 1.000000
0  -6.001776 0.144640 3.741806  -0.566810 -0.582577 0.582521  0.044708 0.699707 1 4 1.000000
0  -5.945627 0.144640 3.741806  0.275466 -0.842123 0.463625  0.044708 0.695068 1 4 1.000000
cz75_frame
0  -6.010503 0.594403 3.663333  -0.713772 0.518258 0.471104  0.071594 0.738770 1 4 1.000000
0  -6.010293 0.525998 3.715868  -0.446747 0.440282 0.778825  0.074097 0.738770 1 4 1.000000
0  -5.447749 0.528892 3.714346  0.000001 0.494308 0.869287  0.073914 0.766113 1 4 1.000000
cz75_frame
0  -5.441437 0.594403 3.663333  -0.001521 0.747918 0.663789  0.071411 0.766357 1 4 1.000000
0  -6.010503 0.594403 3.663333  -0.713772 0.518258 0.471104  0.071594 0.738770 1 4 1.000000
0  -5.447749 0.528892 3.714346  0.000001 0.494308 0.869287  0.073914 0.766113 1 4 1.000000
cz75_frame
0  -6.009833 0.653933 3.568461  -0.707297 0.636945 0.306647  0.067078 0.738770 1 4 1.000000
0  -6.010503 0.594403 3.663333  -0.713772 0.518258 0.471104  0.071594 0.738770 1 4 1.000000
0  -5.441437 0.594403 3.663333  -0.001521 0.747918 0.663789  0.071411 0.766357 1 4 1.000000
cz75_frame
0  -5.415414 0.653933 3.571816  0.002709 0.873825 0.486233  0.066895 0.767700 1 4 1.000000
0  -6.009833 0.653933 3.568461  -0.707297 0.636945 0.306647  0.067078 0.738770 1 4 1.000000
0  -5.441437 0.594403 3.663333  -0.001521 0.747918 0.663789  0.071411 0.766357 1 4 1.000000
cz75_frame
0  -6.010374 0.685622 3.477808  -0.709181 0.685346 0.165416  0.062103 0.738770 1 4 1.000000
0  -6.009833 0.653933 3.568461  -0.707297 0.636945 0.306647  0.067078 0.738770 1 4 1.000000
0  -5.415414 0.653933 3.571816  0.002709 0.873825 0.486233  0.066895 0.767700 1 4 1.000000
cz75_frame
0  -5.345079 0.685622 3.477981  -0.233198 0.952180 0.197413  0.062256 0.771118 1 4 1.000000
0  -6.010374 0.685622 3.477808  -0.709181 0.685346 0.165416  0.062103 0.738770 1 4 1.000000
0  -5.415414 0.653933 3.571816  0.002709 0.873825 0.486233  0.066895 0.767700 1 4 1.000000
cz75_frame
0  -6.010374 0.685622 3.477808  -0.709181 0.685346 0.165416  0.062103 0.738770 1 4 1.000000
0  -5.345079 0.685622 3.477981  -0.233198 0.952180 0.197413  0.062256 0.771118 1 4 1.000000
0  -6.010333 0.700400 3.364580  -0.525115 0.769440 0.363616  0.056641 0.738525 1 4 1.000000
cz75_frame
0  -6.010293 0.719465 3.237695  -0.022624 0.953020 -0.302061  0.050629 0.738281 1 4 1.000000
0  -6.010333 0.700400 3.364580  -0.525115 0.769440 0.363616  0.056641 0.738525 1 4 1.000000
0  -5.345079 0.685622 3.477981  -0.233198 0.952180 0.197413  0.062256 0.771118 1 4 1.000000
cz75_frame
0  -4.280461 0.719465 3.237695  0.693302 0.701396 0.165455  0.050018 0.823486 1 4 1.000000
0  -6.010293 0.719465 3.237695  -0.022624 0.953020 -0.302061  0.050629 0.738281 1 4 1.000000
0  -5.345079 0.685622 3.477981  -0.233198 0.952180 0.197413  0.062256 0.771118 1 4 1.000000
cz75_frame
0  -5.345079 0.685622 3.477981  -0.233198 0.952180 0.197413  0.062256 0.771118 1 4 1.000000
0  -4.480441 0.678655 3.508832  0.276255 0.679877 0.679302  0.062683 0.813110 1 4 1.000000
0  -4.280461 0.719465 3.237695  0.693302 0.701396 0.165455  0.050018 0.823486 1 4 1.000000
cz75_frame
0  -4.480441 0.678655 3.508832  0.276255 0.679877 0.679302  0.062683 0.813110 1 4 1.000000
0  -5.345079 0.685622 3.477981  -0.233198 0.952180 0.197413  0.062256 0.771118 1 4 1.000000
0  -5.345079 0.678655 3.508832  -0.534849 0.526782 0.660634  0.063721 0.771118 1 4 1.000000
cz75_frame
0  -6.010293 0.719465 3.237695  -0.022624 0.953020 -0.302061  0.050629 0.738281 1 4 1.000000
0  -6.185111 0.712589 3.237695  -0.748479 0.630688 -0.204967  0.050690 0.729736 1 4 1.000000
0  -6.010333 0.700400 3.364580  -0.525115 0.769440 0.363616  0.056641 0.738525 1 4 1.000000
cz75_frame
0  -6.010293 0.719465 3.237695  -0.022624 0.953020 -0.302061  0.050629 0.738281 1 4 1.000000
0  -4.280461 0.719465 3.237695  0.693302 0.701396 0.165455  0.050018 0.823486 1 4 1.000000
0  -4.242066 0.650380 3.121177  0.745235 0.620700 -0.243631  0.044922 0.825317 1 4 1.000000
cz75_frame
0  -6.010293 0.719465 3.237695  -0.022624 0.953020 -0.302061  0.050629 0.738281 1 4 1.000000
0  -6.185111 0.614230 3.134502  -0.462161 0.668644 -0.582513  0.045593 0.733887 1 4 1.000000
0  -6.185111 0.712589 3.237695  -0.748479 0.630688 -0.204967  0.050690 0.729736 1 4 1.000000
cz75_frame
0  -6.185111 0.614230 3.134502  -0.462161 0.668644 -0.582513  0.045593 0.733887 1 4 1.000000
0  -6.010293 0.719465 3.237695  -0.022624 0.953020 -0.302061  0.050629 0.738281 1 4 1.000000
0  -4.242066 0.650380 3.121177  0.745235 0.620700 -0.243631  0.044922 0.825317 1 4 1.000000
cz75_frame
0  -6.185111 0.712589 3.237695  -0.748479 0.630688 -0.204967  0.050690 0.729736 1 4 1.000000
0  -6.185111 0.700603 3.364311  -0.562620 0.547398 0.619528  0.056488 0.729736 1 4 1.000000
0  -6.010333 0.700400 3.364580  -0.525115 0.769440 0.363616  0.056641 0.738525 1 4 1.000000
cz75_frame
0  -5.415414 0.653933 3.571816  0.906277 0.051832 0.419494  0.065430 0.698242 1 4 1.000000
0  -5.345079 0.186893 3.477981  0.905175 -0.179226 0.385404  0.073242 0.653809 1 4 1.000000
0  -5.345079 0.685622 3.477981  0.800168 0.000000 0.599776  0.073242 0.700928 1 4 1.000000
cz75_frame
0  -5.415414 0.653933 3.571816  0.906277 0.051832 0.419494  0.065430 0.698242 1 4 1.000000
0  -5.441437 0.594403 3.663333  0.951124 0.090623 0.295212  0.057800 0.693115 1 4 1.000000
0  -5.345079 0.186893 3.477981  0.905175 -0.179226 0.385404  0.073242 0.653809 1 4 1.000000
cz75_frame
0  -5.345079 0.186893 3.477981  0.905175 -0.179226 0.385404  0.073242 0.653809 1 4 1.000000
0  -5.441437 0.594403 3.663333  0.951124 0.090623 0.295212  0.057800 0.693115 1 4 1.000000
0  -5.447749 0.528892 3.714346  0.939366 0.041371 0.340411  0.053558 0.687744 1 4 1.000000
cz75_frame
0  -5.345079 0.186893 3.477981  0.905175 -0.179226 0.385404  0.073242 0.653809 1 4 1.000000
0  -5.447749 0.528892 3.714346  0.939366 0.041371 0.340411  0.053558 0.687744 1 4 1.000000
0  -5.453377 0.457314 3.742903  0.919624 -0.019802 0.392300  0.051178 0.681885 1 4 1.000000
cz75_frame
0  -5.345079 0.186893 3.477981  0.905175 -0.179226 0.385404  0.073242 0.653809 1 4 1.000000
0  -5.453377 0.457314 3.742903  0.919624 -0.019802 0.392300  0.051178 0.681885 1 4 1.000000
0  -5.453377 0.186893 3.741806  0.479216 -0.514624 0.710995  0.051666 0.654297 1 4 1.000000
cz75_frame
0  11.043443 0.083264 3.293783  -1.000000 0.000003 0.000001  0.153442 0.992554 1 4 1.000000
0  11.043443 -0.083101 3.293783  -1.000000 0.000000 0.000000  0.147583 0.982681 1 4 1.000000
0  11.043443 -0.083099 3.740254  -1.000000 0.000010 0.000005  0.196167 0.955597 1 4 1.000000
cz75_frame
0  11.043446 0.083266 3.740254  -1.000000 0.000013 0.000006  0.202515 0.965790 1 4 1.000000
0  11.043443 0.083264 3.293783  -1.000000 0.000003 0.000001  0.153442 0.992554 1 4 1.000000
0  11.043443 -0.083099 3.740254  -1.000000 0.000010 0.000005  0.196167 0.955597 1 4 1.000000
cz75_frame
0  11.043446 0.083266 3.740254  0.000000 0.000000 1.000000  0.202515 0.965790 1 4 1.000000
0  11.043443 -0.083099 3.740254  0.000000 0.000000 1.000000  0.205444 0.956665 1 4 1.000000
0  11.891594 -0.083099 3.740254  0.393918 -0.003484 0.919139  0.232666 0.965881 1 4 1.000000
cz75_frame
0  11.891594 0.083266 3.740254  0.389333 -0.000192 0.921097  0.228760 0.975311 1 4 1.000000
0  11.043446 0.083266 3.740254  0.000000 0.000000 1.000000  0.202515 0.965790 1 4 1.000000
0  11.891594 -0.083099 3.740254  0.393918 -0.003484 0.919139  0.232666 0.965881 1 4 1.000000
cz75_frame
0  11.891594 0.083266 3.740254  0.389333 -0.000192 0.921097  0.228760 0.975311 1 4 1.000000
0  11.891594 -0.083099 3.740254  0.393918 -0.003484 0.919139  0.238525 0.972244 1 4 1.000000
0  12.015290 0.083266 3.610689  0.927623 0.003114 0.373504  0.230591 0.981735 1 4 1.000000
cz75_frame
0  11.891594 -0.083099 3.740254  0.393918 -0.003484 0.919139  0.238525 0.972244 1 4 1.000000
0  12.015987 -0.083099 3.610689  0.927784 0.003192 0.373105  0.240723 0.979004 1 4 1.000000
0  12.015290 0.083266 3.610689  0.927623 0.003114 0.373504  0.230591 0.981735 1 4 1.000000
cz75_frame
0  12.015640 0.083266 3.293783  1.000000 -0.000020 -0.000013  0.234741 0.996002 1 4 1.000000
0  12.015290 0.083266 3.610689  0.927623 0.003114 0.373504  0.230591 0.981735 1 4 1.000000
0  12.015987 -0.083099 3.610689  0.927784 0.003192 0.373105  0.240723 0.979004 1 4 1.000000
cz75_frame
0  12.015640 -0.083099 3.293783  1.000000 0.000000 0.000055  0.245361 0.993515 1 4 1.000000
0  12.015640 0.083266 3.293783  1.000000 0.000015 0.000055  0.234741 0.996002 1 4 1.000000
0  12.015987 -0.083099 3.610689  0.927803 0.003174 0.373056  0.240723 0.979004 1 4 1.000000
cz75_frame
0  11.043443 -0.083099 3.740254  0.000000 -1.000000 0.000004  0.964355 0.295898 1 4 1.000000
0  11.043443 -0.083101 3.293783  0.000001 -1.000000 0.000003  0.994629 0.351562 1 4 1.000000
0  11.891594 -0.083099 3.740254  0.000001 -1.000000 0.000002  0.975098 0.266113 1 4 1.000000
cz75_frame
0  11.043443 -0.083101 3.293783  0.000001 -1.000000 0.000003  0.994629 0.351562 1 4 1.000000
0  12.015987 -0.083099 3.610689  0.000002 -1.000000 0.000001  0.982422 0.263672 1 4 1.000000
0  11.891594 -0.083099 3.740254  0.000001 -1.000000 0.000002  0.975098 0.266113 1 4 1.000000
cz75_frame
0  12.015987 -0.083099 3.610689  0.000002 -1.000000 0.000001  0.982422 0.263672 1 4 1.000000
0  11.043443 -0.083101 3.293783  0.000001 -1.000000 0.000003  0.994629 0.351562 1 4 1.000000
0  12.015640 -0.083099 3.293783  0.000002 -1.000000 0.000000  0.998535 0.259277 1 4 1.000000
cz75_frame
0  11.043446 0.083266 3.740254  0.000000 1.000000 -0.000004  0.202515 0.965790 1 4 1.000000
0  11.891594 0.083266 3.740254  -0.000001 1.000000 -0.000002  0.228760 0.975311 1 4 1.000000
0  11.043443 0.083264 3.293783  -0.000000 1.000000 -0.000004  0.153442 0.992554 1 4 1.000000
cz75_frame
0  11.891594 0.083266 3.740254  -0.000001 1.000000 -0.000002  0.228760 0.975311 1 4 1.000000
0  12.015290 0.083266 3.610689  -0.000002 1.000000 -0.000002  0.230591 0.981735 1 4 1.000000
0  11.043443 0.083264 3.293783  -0.000000 1.000000 -0.000004  0.153442 0.992554 1 4 1.000000
cz75_frame
0  12.015640 0.083266 3.293783  -0.000002 1.000000 0.000000  0.234741 0.996002 1 4 1.000000
0  11.043443 0.083264 3.293783  -0.000002 1.000000 0.000000  0.153442 0.992554 1 4 1.000000
0  12.015290 0.083266 3.610689  -0.000002 1.000000 0.000000  0.230591 0.981735 1 4 1.000000
cz75_frame
0  -5.888949 0.186893 3.477981  0.000000 0.000000 1.000000  0.102173 0.690430 1 4 1.000000
0  -5.945627 0.144640 3.477981  0.000000 0.000000 1.000000  0.099854 0.695312 1 4 1.000000
0  -5.345079 0.186893 3.477981  0.000001 0.000000 1.000000  0.102173 0.645264 1 4 1.000000
cz75_frame
0  -5.945627 0.144640 3.477981  0.000000 0.000000 1.000000  0.099854 0.695312 1 4 1.000000
0  -5.945627 -0.144902 3.477981  0.000000 0.000000 1.000000  0.083984 0.695312 1 4 1.000000
0  -5.345079 0.186893 3.477981  0.000001 0.000000 1.000000  0.102173 0.645264 1 4 1.000000
cz75_frame
0  -6.010913 -0.144902 3.477981  -0.972180 0.165912 0.165344  0.083618 0.700195 1 4 1.000000
0  -5.945627 -0.144902 3.477981  0.000000 0.000000 1.000000  0.083984 0.695312 1 4 1.000000
0  -5.945627 0.144640 3.477981  0.000000 0.000000 1.000000  0.099854 0.695312 1 4 1.000000
cz75_frame
0  -6.010913 0.144640 3.477981  -0.972180 -0.165911 0.165344  0.100220 0.700195 1 4 1.000000
0  -6.010913 -0.144902 3.477981  -0.972180 0.165912 0.165344  0.083618 0.700195 1 4 1.000000
0  -5.945627 0.144640 3.477981  0.000000 0.000000 1.000000  0.099854 0.695312 1 4 1.000000
cz75_frame
0  -5.945627 -0.144902 3.477981  0.000000 0.000000 1.000000  0.083984 0.695312 1 4 1.000000
0  -5.345079 -0.187155 3.477981  0.000001 0.000000 1.000000  0.081665 0.645264 1 4 1.000000
0  -5.345079 0.186893 3.477981  0.000001 0.000000 1.000000  0.102173 0.645264 1 4 1.000000
cz75_frame
0  -5.888949 -0.187155 3.477981  0.000000 0.000000 1.000000  0.081665 0.690430 1 4 1.000000
0  -5.345079 -0.187155 3.477981  0.000001 0.000000 1.000000  0.081665 0.645264 1 4 1.000000
0  -5.945627 -0.144902 3.477981  0.000000 0.000000 1.000000  0.083984 0.695312 1 4 1.000000
tritium_glow
0  -6.014669 0.500591 3.740696  -1.000000 0.000000 0.000018  0.988770 0.485352 1 4 1.000000
0  -6.015660 0.500591 3.429282  -1.000000 -0.000000 -0.000078  0.011185 0.485352 1 4 1.000000
0  -6.015660 0.191493 3.429282  -1.000000 0.000001 0.000018  0.011185 0.015137 1 4 1.000000
tritium_glow
0  -6.014669 0.191493 3.740696  -1.000000 0.000000 -0.000078  0.988770 0.015137 1 4 1.000000
0  -6.014669 0.500591 3.740696  -1.000000 0.000000 0.000018  0.988770 0.485352 1 4 1.000000
0  -6.015660 0.191493 3.429282  -1.000000 0.000001 0.000018  0.011185 0.015137 1 4 1.000000
tritium_glow
0  -6.015751 -0.190665 3.443148  -0.999988 0.000000 0.004954  0.011185 0.485352 1 4 1.000000
0  -6.015751 -0.483692 3.443148  -0.999988 0.000000 0.004954  0.011185 0.015137 1 4 1.000000
0  -6.014293 -0.483692 3.737412  -0.999988 0.000000 0.004954  0.988770 0.015137 1 4 1.000000
tritium_glow
0  -6.014293 -0.190665 3.737412  -0.999988 0.000000 0.004954  0.988770 0.485352 1 4 1.000000
0  -6.015751 -0.190665 3.443148  -0.999988 0.000000 0.004954  0.011185 0.485352 1 4 1.000000
0  -6.014293 -0.483692 3.737412  -0.999988 0.000000 0.004954  0.988770 0.015137 1 4 1.000000
tritium_glow
0  11.039802 0.101968 3.700864  -0.999974 0.000000 0.007220  0.988770 0.485352 1 4 1.000000
0  11.038169 0.101968 3.474750  -0.999974 0.000000 0.007220  0.011185 0.485352 1 4 1.000000
0  11.038169 -0.106898 3.474750  -0.999974 0.000000 0.007220  0.011185 0.015137 1 4 1.000000
tritium_glow
0  11.039802 -0.106898 3.700864  -0.999974 0.000000 0.007220  0.988770 0.015137 1 4 1.000000
0  11.039802 0.101968 3.700864  -0.999974 0.000000 0.007220  0.988770 0.485352 1 4 1.000000
0  11.038169 -0.106898 3.474750  -0.999974 0.000000 0.007220  0.011185 0.015137 1 4 1.000000
end
